Index    Invoke Time(sec)       Use Size(byte)     Total Size(byte)         Total Object                    GC Time(ms) GC 5499 invokes.        48.225620756
    1               0.053               303160              1142400                28560         1.96262499999998873967
    2               0.065               303280              1142400                28560         0.68037300000012290724
    3               0.075               303320              1142400                28560         0.53829499999991092807
    4               0.085               303360              1142400                28560         0.51340699999997962966
    5               0.095               303400              1142400                28560         0.54304200000003521875
    6               0.105               303440              1142400                28560         0.53258100000000418994
    7               0.115               303480              1142400                28560         0.56844100000004449402
    8               0.125               303520              1142400                28560         0.63210200000013427868
    9               0.135               303560              1142400                28560         0.56991500000005967941
   10               0.145               303600              1142400                28560         0.51755800000014007267
   11               0.155               303640              1142400                28560         0.50090799999985557989
   12               0.164               303680              1142400                28560         0.50058500000013661513
   13               0.174               303720              1142400                28560         0.48771200000008452236
   14               0.183               303760              1142400                28560         0.48563800000003820578
   15               0.193               303800              1142400                28560         0.52707600000007071017
   16               0.203               303840              1142400                28560         0.51997399999997861997
   17               0.213               303880              1142400                28560         0.54464300000003906810
   18               0.222               303920              1142400                28560         0.54210900000006834176
   19               0.232               303960              1142400                28560         0.59497799999985723218
   20               0.242               304000              1142400                28560         0.52463200000005261181
   21               0.251               304040              1142400                28560         0.51848299999979197139
   22               0.261               304080              1142400                28560         0.52658200000010868536
   23               0.271               304120              1142400                28560         0.47639099999990941470
   24               0.280               304160              1142400                28560         0.48323900000007968814
   25               0.289               304200              1142400                28560         0.51403900000002167303
   26               0.299               304240              1142400                28560         0.50989199999995626911
   27               0.309               304280              1142400                28560         0.55847199999975449813
   28               0.319               304320              1142400                28560         0.48288100000026812353
   29               0.328               304360              1142400                28560         0.49471500000008994391
   30               0.338               304400              1142400                28560         0.56427699999994640478
   31               0.348               304440              1142400                28560         0.71190900000039913920
   32               0.360               304480              1142400                28560         0.50505499999942138345
   33               0.370               304520              1142400                28560         0.52696099999993695207
   34               0.380               304560              1142400                28560         0.57299900000024051039
   35               0.389               304600              1142400                28560         0.53089700000003015035
   36               0.399               304640              1142400                28560         0.60798700000008754074
   37               0.409               304680              1142400                28560         0.51907400000011927332
   38               0.419               304720              1142400                28560         0.57942199999977406222
   39               0.429               304760              1142400                28560         0.47653300000005671677
   40               0.439               304800              1142400                28560         0.55926200000000481083
   41               0.449               304840              1142400                28560         0.51417900000005900552
   42               0.458               304880              1142400                28560         0.49787899999997886624
   43               0.468               304920              1142400                28560         0.54355299999991890658
   44               0.478               304960              1142400                28560         0.51715100000054858853
   45               0.488               305000              1142400                28560         0.47619100000023673047
   46               0.497               305040              1142400                28560         0.49450199999978572407
   47               0.507               305080              1142400                28560         0.53012299999988243826
   48               0.517               305120              1142400                28560         0.53102599999976796141
   49               0.527               305160              1142400                28560         0.57516999999995821469
   50               0.536               305200              1142400                28560         0.49120199999985736383
   51               0.546               305240              1142400                28560         0.52461100000045224334
   52               0.556               305280              1142400                28560         0.51466399999999801196
   53               0.566               305320              1142400                28560         0.52880100000018970263
   54               0.576               305360              1142400                28560         0.59285599999947535821
   55               0.586               305400              1142400                28560         0.52832200000052509381
   56               0.595               305440              1142400                28560         0.56046100000062271107
   57               0.606               305480              1142400                28560         0.56775300000011519330
   58               0.615               305520              1142400                28560         0.57634500000047772517
   59               0.625               305560              1142400                28560         0.51042999999995064542
   60               0.635               305600              1142400                28560         0.55463600000005275348
   61               0.645               305640              1142400                28560         0.53757500000006785967
   62               0.655               305680              1142400                28560         0.53202499999960295440
   63               0.665               305720              1142400                28560         0.53750900000026913261
   64               0.674               305760              1142400                28560         0.52448999999965550955
   65               0.684               305800              1142400                28560         0.51997400000003413112
   66               0.694               305840              1142400                28560         0.47251399999992393930
   67               0.704               305880              1142400                28560         0.51323100000033594625
   68               0.714               305920              1142400                28560         0.57620599999985699924
   69               0.723               305960              1142400                28560         0.55298400000003411492
   70               0.733               306000              1142400                28560         0.50998900000076563543
   71               0.743               306040              1142400                28560         0.55939600000010081260
   72               0.753               306080              1142400                28560         0.51506300000037086306
   73               0.763               306120              1142400                28560         0.49588299999958618258
   74               0.773               306160              1142400                28560         0.61255299999962709023
   75               0.783               306200              1142400                28560         0.53700400000045167559
   76               0.793               306240              1142400                28560         0.58231600000036021214
   77               0.804               306280              1142400                28560         0.56368799999984009474
   78               0.814               306320              1142400                28560         0.48329599999941130761
   79               0.824               306360              1142400                28560         0.57291200000020303662
   80               0.834               306400              1142400                28560         0.51746699999954959281
   81               0.844               306440              1142400                28560         0.51386699999922402782
   82               0.854               306480              1142400                28560         0.51964899999978886314
   83               0.864               306520              1142400                28560         0.54395499999992935614
   84               0.874               306560              1142400                28560         0.50567599999951085010
   85               0.884               306600              1142400                28560         0.50147200000039138246
   86               0.894               306640              1142400                28560         0.59502199999938998332
   87               0.905               306680              1142400                28560         0.55932399999980564331
   88               0.915               306720              1142400                28560         0.49475500000029093428
   89               0.925               306760              1142400                28560         0.55812199999949463347
   90               0.935               306800              1142400                28560         0.53614100000054509820
   91               0.945               306840              1142400                28560         0.49708000000003860208
   92               0.956               306880              1142400                28560         0.59516800000036784724
   93               0.966               306920              1142400                28560         0.53700100000042549908
   94               0.976               306960              1142400                28560         0.51369500000009171714
   95               0.985               307000              1142400                28560         0.55181100000001315209
   96               0.995               307040              1142400                28560         0.49300199999979810173
   97               1.005               307080              1142400                28560         0.52884299999900186151
   98               1.015               307120              1142400                28560         0.50799399999967853603
   99               1.024               307160              1142400                28560         0.53983300000037814925
  100               1.034               307200              1142400                28560         0.49138399999937298901
  101               1.044               307240              1142400                28560         0.48946900000146342791
  102               1.054               307280              1142400                28560         0.49246199999908313316
  103               1.063               307320              1142400                28560         0.51451899999910288841
  104               1.073               307360              1142400                28560         0.53514899999962395327
  105               1.083               307400              1142400                28560         0.56165499999960566413
  106               1.094               307440              1142400                28560         0.55651100000164710480
  107               1.104               307480              1142400                28560         0.53078600000033837603
  108               1.113               307520              1142400                28560         0.50494699999936720758
  109               1.123               307560              1142400                28560         0.53985000000000837872
  110               1.133               307600              1142400                28560         0.56649800000019290280
  111               1.143               307640              1142400                28560         0.50773399999948232164
  112               1.153               307680              1142400                28560         0.58011999999862950972
  113               1.163               307720              1142400                28560         0.53892500000074505806
  114               1.172               307760              1142400                28560         0.52091699999934348853
  115               1.182               307800              1142400                28560         0.49405499999966018265
  116               1.192               307840              1142400                28560         0.58332700000018888886
  117               1.202               307880              1142400                28560         0.58398200000020494826
  118               1.212               307920              1142400                28560         0.50178500000064296671
  119               1.222               307960              1142400                28560         0.54678100000016272020
  120               1.232               308000              1142400                28560         0.52824100000026241730
  121               1.242               308040              1142400                28560         0.49617899999976344816
  122               1.252               308080              1142400                28560         0.48188500000101441856
  123               1.262               308120              1142400                28560         0.47634200000024051747
  124               1.272               308160              1142400                28560         0.58289799999955427268
  125               1.281               308200              1142400                28560         0.55363500000038534665
  126               1.291               308240              1142400                28560         0.48474200000048206505
  127               1.301               308280              1142400                28560         0.49138800000037008431
  128               1.311               308320              1142400                28560         0.48904000000016267791
  129               1.321               308360              1142400                28560         0.54592000000042162355
  130               1.331               308400              1142400                28560         0.47921399999983904650
  131               1.340               308440              1142400                28560         0.57080700000033957053
  132               1.352               308480              1142400                28560         0.60356299999986262605
  133               1.362               308520              1142400                28560         0.55369800000137914253
  134               1.372               308560              1142400                28560         0.51533600000008839004
  135               1.382               308600              1142400                28560         0.55452000000033585536
  136               1.392               308640              1142400                28560         0.54999199999916648096
  137               1.402               308680              1142400                28560         0.59525800000015394176
  138               1.411               308720              1142400                28560         0.54133800000033538424
  139               1.421               308760              1142400                28560         0.60430399999966688540
  140               1.431               308800              1142400                28560         0.49412999999987050614
  141               1.441               308840              1142400                28560         0.53788500000062633433
  142               1.451               308880              1142400                28560         0.51682300000077674440
  143               1.460               308920              1142400                28560         0.51412799999983604948
  144               1.470               308960              1142400                28560         0.58905599999969915359
  145               1.481               309000              1142400                28560         0.53834099999927609304
  146               1.491               309040              1142400                28560         0.51566699999949783262
  147               1.501               309080              1142400                28560         0.48246800000040224177
  148               1.511               309120              1142400                28560         0.67020700000064437063
  149               1.521               309160              1142400                28560         0.51584599999987545971
  150               1.531               309200              1142400                28560         0.51921500000040587963
  151               1.541               309240              1142400                28560         0.52190900000059770036
  152               1.551               309280              1142400                28560         0.56191499999935778931
  153               1.562               309320              1142400                28560         0.53740800000023902783
  154               1.571               309360              1142400                28560         0.51980800000039906195
  155               1.581               309400              1142400                28560         0.50309900000011786858
  156               1.592               309440              1142400                28560         0.55699700000011453938
  157               1.602               309480              1142400                28560         0.52522500000118377272
  158               1.612               309520              1142400                28560         0.58727700000060778507
  159               1.623               309560              1142400                28560         0.62746700000149147058
  160               1.635               309600              1142400                28560         0.48984100000004637820
  161               1.645               309640              1142400                28560         0.56588700000048675065
  162               1.655               309680              1142400                28560         0.56899499999873981437
  163               1.665               309720              1142400                28560         0.48168499999867719907
  164               1.675               309760              1142400                28560         0.54902400000123030566
  165               1.685               309800              1142400                28560         0.61593400000292675145
